# dimensionless total [l(l+1)/2pi] C_l's
# for l=2 to 2500, i.e. number of multipoles equal to 2499
#
# -> if you prefer output in CAMB/HealPix/LensPix units/order, set 'format' to 'camb' in input file
# -> if you don't want to see such a header, set 'headers' to 'no' in input file
# -> for CMB lensing (phi), these are C_l^phi-phi for the lensing potential.
#    Remember the conversion factors:
#    C_l^dd (deflection) = l(l+1) C_l^phi-phi
#    C_l^gg (shear/convergence) = 1/4 (l(l+1))^2 C_l^phi-phi
#
# 1:l     2:TT                     3:EE                     4:TE                     5:BB                     6:phiphi                 7:TPhi                   8:Ephi               
    2       1.452706382949e-10       5.590971712940e-15       4.078565139066e-13       0.000000000000e+00       8.453647354559e-09       4.824830820300e-10      -2.165512338277e-12 
    3       1.367139895446e-10       8.222610255950e-15       4.855673596724e-13       0.000000000000e+00       5.191564180263e-09       3.414006130608e-10      -1.773628165719e-12 
    4       1.286176943377e-10       8.243166076980e-15       4.771799586607e-13       0.000000000000e+00       3.594564417671e-09       2.582937601823e-10      -1.290890108451e-12 
    5       1.224308702032e-10       6.435446027321e-15       4.252813329607e-13       0.000000000000e+00       2.674074136988e-09       2.039455084214e-10      -8.439463184815e-13 
    6       1.180442226934e-10       4.142601674162e-15       3.566255011527e-13       0.000000000000e+00       2.083022050702e-09       1.659068885357e-10      -4.746342779657e-13 
    7       1.151190851510e-10       2.339548343589e-15       2.880971639307e-13       0.000000000000e+00       1.676473204437e-09       1.379821189251e-10      -1.982829209832e-13 
    8       1.132371463267e-10       1.324709790193e-15       2.288578406948e-13       0.000000000000e+00       1.382759197286e-09       1.167363312683e-10      -1.441846516398e-14 
    9       1.121988510296e-10       9.141239381546e-16       1.831183530439e-13       0.000000000000e+00       1.162413663495e-09       1.001581583320e-10       8.757881872396e-14 
   10       1.118034461285e-10       7.829673886991e-16       1.518338684128e-13       0.000000000000e+00       9.921291478757e-10       8.698600526707e-11       1.246334267383e-13 
   11       1.118557742276e-10       7.042938391056e-16       1.338890072172e-13       0.000000000000e+00       8.495289235720e-10       7.706843366313e-11       1.163194552094e-13 
   12       1.123161392114e-10       6.080955560512e-16       1.267919725920e-13       0.000000000000e+00       7.423435619278e-10       6.824533532387e-11       8.252957604086e-14 
   13       1.130430221475e-10       5.191518870011e-16       1.274398465210e-13       0.000000000000e+00       6.543490783931e-10       6.086795516290e-11       3.930629173894e-14 
   14       1.139718230180e-10       4.731843893140e-16       1.329496948084e-13       0.000000000000e+00       5.811234765375e-10       5.460068145584e-11      -1.082059165080e-15 
   15       1.151070430949e-10       4.749815899658e-16       1.409541354916e-13       0.000000000000e+00       5.194845487485e-10       4.931947270768e-11      -3.097200093885e-14 
   16       1.163958089741e-10       5.044179201126e-16       1.496746745223e-13       0.000000000000e+00       4.670742945123e-10       4.480402791011e-11      -4.741393806816e-14 
   17       1.178106823052e-10       5.414781063813e-16       1.581256701260e-13       0.000000000000e+00       4.221113916997e-10       4.083533265607e-11      -5.116723718150e-14 
   18       1.193532343686e-10       5.820076117144e-16       1.659221016561e-13       0.000000000000e+00       3.832294342270e-10       3.734401743153e-11      -4.517240183255e-14 
   19       1.209577818867e-10       6.358238881001e-16       1.730968519676e-13       0.000000000000e+00       3.493679643386e-10       3.425565743250e-11      -3.350876501107e-14 
   20       1.226356344067e-10       7.151328421392e-16       1.800335287639e-13       0.000000000000e+00       3.196909269332e-10       3.149959873599e-11      -2.035922554596e-14 
   21       1.244092835003e-10       8.253970783622e-16       1.871631256249e-13       0.000000000000e+00       2.935312713411e-10       2.906210632731e-11      -9.088609656238e-15 
   22       1.262376820380e-10       9.646460462293e-16       1.947849338066e-13       0.000000000000e+00       2.703511710259e-10       2.693211455474e-11      -1.772984168454e-15 
   23       1.281331247409e-10       1.128417849949e-15       2.029782903611e-13       0.000000000000e+00       2.497129442860e-10       2.505793612073e-11       9.084141401701e-16 
   24       1.300397204651e-10       1.314017632791e-15       2.117575117320e-13       0.000000000000e+00       2.312570785625e-10       2.336606231676e-11      -5.193068412241e-16 
   25       1.320428188453e-10       1.521374921160e-15       2.208191581090e-13       0.000000000000e+00       2.146862138650e-10       2.178294490762e-11      -4.865335116954e-15 
   26       1.340586297978e-10       1.751377430039e-15       2.296880560162e-13       0.000000000000e+00       1.997529723113e-10       2.032218577039e-11      -1.047054027757e-14 
   27       1.361028808963e-10       2.003664654882e-15       2.380590861910e-13       0.000000000000e+00       1.862492343338e-10       1.903055062500e-11      -1.562641577434e-14 
   28       1.382290843605e-10       2.276725210002e-15       2.454257533715e-13       0.000000000000e+00       1.739988308285e-10       1.788972302907e-11      -1.913956996559e-14 
   29       1.403236583668e-10       2.569919573414e-15       2.515425949311e-13       0.000000000000e+00       1.628520885287e-10       1.685300146353e-11      -2.040140142365e-14 
   30       1.425353828147e-10       2.884632768213e-15       2.562442343083e-13       0.000000000000e+00       1.526808510561e-10       1.589063167570e-11      -1.940407659859e-14 
   31       1.447223197226e-10       3.223739520605e-15       2.594185251927e-13       0.000000000000e+00       1.433755486824e-10       1.495828662580e-11      -1.697053490324e-14 
   32       1.469170690775e-10       3.590497305808e-15       2.613247373008e-13       0.000000000000e+00       1.348427191311e-10       1.409401629289e-11      -1.383535431798e-14 
   33       1.492401127247e-10       3.987408596120e-15       2.619117854489e-13       0.000000000000e+00       1.269999359584e-10       1.333493153078e-11      -1.057347706083e-14 
   34       1.514729186475e-10       4.415649947710e-15       2.613740330995e-13       0.000000000000e+00       1.197752018567e-10       1.266038426985e-11      -7.813818890055e-15 
   35       1.538115306165e-10       4.875846160597e-15       2.598959440462e-13       0.000000000000e+00       1.131059187754e-10       1.200814907880e-11      -6.269620596617e-15 
   36       1.562010105516e-10       5.368388324796e-15       2.572929694166e-13       0.000000000000e+00       1.069386536204e-10       1.137211183707e-11      -6.138801539218e-15 
   37       1.584961236047e-10       5.893395651509e-15       2.538087645867e-13       0.000000000000e+00       1.012248290541e-10       1.080771651935e-11      -6.805248910794e-15 
   38       1.609431123241e-10       6.451520840642e-15       2.492161816336e-13       0.000000000000e+00       9.592122236294e-11       1.031533292369e-11      -7.806815112398e-15 
   39       1.633755481433e-10       7.043805217095e-15       2.431496296185e-13       0.000000000000e+00       9.099076185563e-11       9.805280627706e-12      -9.517948513023e-15 
   40       1.657683812488e-10       7.670760119587e-15       2.358057351611e-13       0.000000000000e+00       8.640052688234e-11       9.345471480573e-12      -1.073240383757e-14 
   41       1.682881909022e-10       8.332375961768e-15       2.268260854332e-13       0.000000000000e+00       8.211990662144e-11       8.938800770963e-12      -1.103547939935e-14 
   42       1.707567218986e-10       9.029175660859e-15       2.159895096259e-13       0.000000000000e+00       7.812238596815e-11       8.526636183267e-12      -1.106922780679e-14 
   43       1.732461621960e-10       9.762435906409e-15       2.035633493186e-13       0.000000000000e+00       7.438493880073e-11       8.153031303866e-12      -1.040177714927e-14 
   44       1.758464984895e-10       1.053275224083e-14       1.893443207484e-13       0.000000000000e+00       7.088535485930e-11       7.823780797612e-12      -8.951679489643e-15 
   45       1.783817057801e-10       1.134024561088e-14       1.733701103415e-13       0.000000000000e+00       6.760454589835e-11       7.472404945317e-12      -7.877399643343e-15 
   46       1.809748543306e-10       1.218574060788e-14       1.557958607776e-13       0.000000000000e+00       6.452477949693e-11       7.154864480602e-12      -6.680925264267e-15 
   47       1.836120243990e-10       1.306953070954e-14       1.366770623034e-13       0.000000000000e+00       6.163249766251e-11       6.870913437298e-12      -5.669458264710e-15 
   48       1.862268714180e-10       1.399160100494e-14       1.160363829464e-13       0.000000000000e+00       5.891092579883e-11       6.596327462163e-12      -5.424005197494e-15 
   49       1.888591727520e-10       1.495178259872e-14       9.385439497198e-14       0.000000000000e+00       5.634875058917e-11       6.331980228600e-12      -5.787751307118e-15 
   50       1.915624067063e-10       1.595002159134e-14       7.011060363090e-14       0.000000000000e+00       5.393305124967e-11       6.084026499686e-12      -6.412250088423e-15 
   51       1.943033312714e-10       1.698723208859e-14       4.483419845292e-14       0.000000000000e+00       5.165444692026e-11       5.850138895402e-12      -7.145290727255e-15 
   52       1.970356797098e-10       1.806438227417e-14       1.802050734417e-14       0.000000000000e+00       4.950209695202e-11       5.626716273893e-12      -7.873689918260e-15 
   53       1.997833643736e-10       1.918131389481e-14      -1.055890906900e-14       0.000000000000e+00       4.746813320860e-11       5.417346066388e-12      -8.459646561849e-15 
   54       2.025794250915e-10       2.033755879435e-14      -4.112042748106e-14       0.000000000000e+00       4.554356362708e-11       5.225576304421e-12      -8.777960094310e-15 
   55       2.054031389737e-10       2.153295791849e-14      -7.347985936040e-14       0.000000000000e+00       4.372175231981e-11       5.045461369945e-12      -8.830246901376e-15 
   56       2.082284664119e-10       2.276742763039e-14      -1.074281301138e-13       0.000000000000e+00       4.199514931891e-11       4.869213873604e-12      -8.675219200525e-15 
   57       2.110834830523e-10       2.404099271625e-14      -1.432167533443e-13       0.000000000000e+00       4.035809457950e-11       4.695631232207e-12      -8.450552818929e-15 
   58       2.139987456283e-10       2.535354280512e-14      -1.811221194721e-13       0.000000000000e+00       3.880419535204e-11       4.526096931404e-12      -8.301399038219e-15 
   59       2.169425456664e-10       2.670433911260e-14      -2.208864525107e-13       0.000000000000e+00       3.732865150699e-11       4.365681073244e-12      -8.262977636150e-15 
   60       2.198785394713e-10       2.809253041323e-14      -2.621902849272e-13       0.000000000000e+00       3.592607923424e-11       4.218817215593e-12      -8.344925484554e-15 
   61       2.228389835192e-10       2.951783079401e-14      -3.051903823026e-13       0.000000000000e+00       3.459237817659e-11       4.081660640431e-12      -8.574983946124e-15 
   62       2.258618768587e-10       3.098011152473e-14      -3.501089727275e-13       0.000000000000e+00       3.332296215799e-11       3.948756999464e-12      -8.969389741719e-15 
   63       2.289187111373e-10       3.247932111553e-14      -3.968224598125e-13       0.000000000000e+00       3.211429264447e-11       3.819435168831e-12      -9.468489000905e-15 
   64       2.319741120626e-10       3.401528664468e-14      -4.451719197651e-13       0.000000000000e+00       3.096243806731e-11       3.694637970696e-12      -9.988276681429e-15 
   65       2.350540509730e-10       3.558724346835e-14      -4.953047195413e-13       0.000000000000e+00       2.986438100824e-11       3.576811562275e-12      -1.045178367281e-14 
   66       2.381914705439e-10       3.719441335116e-14      -5.473995040303e-13       0.000000000000e+00       2.881675425906e-11       3.467842445848e-12      -1.079656074518e-14 
   67       2.413695496802e-10       3.883686079445e-14      -6.013607667962e-13       0.000000000000e+00       2.781678393869e-11       3.365053058613e-12      -1.103278759867e-14 
   68       2.445624270071e-10       4.051455585578e-14      -6.570337662869e-13       0.000000000000e+00       2.686147958467e-11       3.265055653884e-12      -1.118455608122e-14 
   69       2.477716239867e-10       4.222600942230e-14      -7.143689610520e-13       0.000000000000e+00       2.594890540535e-11       3.167853313679e-12      -1.124322914390e-14 
   70       2.510063408648e-10       4.396919719541e-14      -7.733432880525e-13       0.000000000000e+00       2.507667831929e-11       3.074378575046e-12      -1.119044508531e-14 
   71       2.542747776215e-10       4.574207473968e-14      -8.339248314359e-13       0.000000000000e+00       2.424194680713e-11       2.985376703040e-12      -1.102524659449e-14 
   72       2.575791504760e-10       4.754316572329e-14      -8.960508214567e-13       0.000000000000e+00       2.344312771742e-11       2.900678776325e-12      -1.082475498326e-14 
   73       2.609197131722e-10       4.937107781815e-14      -9.596453367043e-13       0.000000000000e+00       2.267842253419e-11       2.819786907267e-12      -1.069527615716e-14 
   74       2.642958117098e-10       5.122432831243e-14      -1.024639871713e-12       0.000000000000e+00       2.194565298455e-11       2.742151561918e-12      -1.071468910331e-14 
   75       2.677046414573e-10       5.310134679460e-14      -1.091019112343e-12       0.000000000000e+00       2.124349096352e-11       2.667389717585e-12      -1.080347406066e-14 
   76       2.711422023795e-10       5.500046995535e-14      -1.158783471880e-12       0.000000000000e+00       2.057039656405e-11       2.595098464410e-12      -1.083017465157e-14 
   77       2.746052675990e-10       5.692019247674e-14      -1.227946222584e-12       0.000000000000e+00       1.992454135608e-11       2.524952705981e-12      -1.068988154817e-14 
   78       2.780966363246e-10       5.885997955348e-14      -1.298567353417e-12       0.000000000000e+00       1.930481508176e-11       2.457237369808e-12      -1.043483256430e-14 
   79       2.816207622260e-10       6.081959841295e-14      -1.370726109506e-12       0.000000000000e+00       1.870995318957e-11       2.392404957503e-12      -1.016658811346e-14 
   80       2.851812223708e-10       6.279871786913e-14      -1.444471370430e-12       0.000000000000e+00       1.813846581927e-11       2.330758090572e-12      -9.968113299239e-15 
   81       2.887776381500e-10       6.479639013955e-14      -1.519693984791e-12       0.000000000000e+00       1.758943238240e-11       2.271941492306e-12      -9.809769178454e-15 
   82       2.924082078690e-10       6.681148488620e-14      -1.596232815888e-12       0.000000000000e+00       1.706180927276e-11       2.215360898635e-12      -9.627550919689e-15 
   83       2.960709109726e-10       6.884262330589e-14      -1.673933015960e-12       0.000000000000e+00       1.655437001465e-11       2.160463576056e-12      -9.372217610128e-15 
   84       2.997644864327e-10       7.088747188430e-14      -1.752711453478e-12       0.000000000000e+00       1.606632026403e-11       2.107159204768e-12      -9.077068824123e-15 
   85       3.034875773215e-10       7.294333042715e-14      -1.832501608373e-12       0.000000000000e+00       1.559675857904e-11       2.055464046957e-12      -8.801219926610e-15 
   86       3.072392312814e-10       7.500748078761e-14      -1.913238216930e-12       0.000000000000e+00       1.514464540164e-11       2.005412296543e-12      -8.593137043626e-15 
   87       3.110214850520e-10       7.707763355029e-14      -1.994870971459e-12       0.000000000000e+00       1.470932913073e-11       1.957178777339e-12      -8.438716106924e-15 
   88       3.148371687570e-10       7.915154785506e-14      -2.077353001620e-12       0.000000000000e+00       1.429008404204e-11       1.910974556158e-12      -8.305054609334e-15 
   89       3.186881980609e-10       8.122716254971e-14      -2.160641180717e-12       0.000000000000e+00       1.388606210795e-11       1.866891316950e-12      -8.164432084983e-15 
   90       3.225726312783e-10       8.330344434325e-14      -2.244710081956e-12       0.000000000000e+00       1.349667189016e-11       1.824524855659e-12      -8.021162210580e-15 
   91       3.264871404399e-10       8.537967124130e-14      -2.329540298843e-12       0.000000000000e+00       1.312124260842e-11       1.783291720822e-12      -7.888796389867e-15 
   92       3.304288601702e-10       8.745491612965e-14      -2.415104560835e-12       0.000000000000e+00       1.275902739252e-11       1.742707808327e-12      -7.778451910176e-15 
   93       3.343984919534e-10       8.952721171740e-14      -2.501336706953e-12       0.000000000000e+00       1.240959954878e-11       1.702918145204e-12      -7.687407609718e-15 
   94       3.383976401761e-10       9.159426341113e-14      -2.588158173763e-12       0.000000000000e+00       1.207250337402e-11       1.664244185506e-12      -7.608825011750e-15 
   95       3.424278660113e-10       9.365370119779e-14      -2.675487354931e-12       0.000000000000e+00       1.174712697360e-11       1.627023702162e-12      -7.535178056682e-15 
   96       3.464902104614e-10       9.570319023078e-14      -2.763243158322e-12       0.000000000000e+00       1.143281057210e-11       1.591505646167e-12      -7.459815578770e-15 
   97       3.505836935419e-10       9.774078281602e-14      -2.851356335404e-12       0.000000000000e+00       1.112920137206e-11       1.557516570512e-12      -7.381950681809e-15 
   98       3.547065869577e-10       9.976461647890e-14      -2.939759756537e-12       0.000000000000e+00       1.083594054791e-11       1.524745853712e-12      -7.302367118287e-15 
   99       3.588568567718e-10       1.017728077260e-13      -3.028384987005e-12       0.000000000000e+00       1.055255010809e-11       1.492845738591e-12      -7.221903739520e-15 
  100       3.630326765803e-10       1.037634609025e-13      -3.117164343702e-12       0.000000000000e+00       1.027851335540e-11       1.461515472676e-12      -7.141172809968e-15 
  101       3.672340718182e-10       1.057346948707e-13      -3.206037359464e-12       0.000000000000e+00       1.001353781272e-11       1.430769498276e-12      -7.059667260339e-15 
  102       3.714614876758e-10       1.076846212192e-13      -3.294945259705e-12       0.000000000000e+00       9.757321888993e-12       1.400705073957e-12      -6.976529872581e-15 
  103       3.757152817881e-10       1.096113370412e-13      -3.383829042588e-12       0.000000000000e+00       9.509470722495e-12       1.371420368620e-12      -6.890822882552e-15 
  104       3.799955520660e-10       1.115129286727e-13      -3.472625872344e-12       0.000000000000e+00       9.269560456089e-12       1.343004803670e-12      -6.802496172944e-15 
  105       3.843016029079e-10       1.133874819615e-13      -3.561257617425e-12       0.000000000000e+00       9.037347436030e-12       1.315508713105e-12      -6.715445431564e-15 
  106       3.886323985762e-10       1.152330747053e-13      -3.649640832034e-12       0.000000000000e+00       8.812581791504e-12       1.288969462522e-12      -6.634865024058e-15 
  107       3.929867186065e-10       1.170477744714e-13      -3.737690265150e-12       0.000000000000e+00       8.594940428269e-12       1.263420526511e-12      -6.566322955449e-15 
